time_s,signal
0.0,0.10204595606925913
0.002,0.5277859703101074
0.004,1.1995878104706703
0.006,1.43542539367056
0.008,1.4311500540695987
0.01,1.1405106891848036
0.012,0.5172303354030153
0.014,-0.04866108961009931
0.016,-0.7252308871437753
0.018000000000000002,-1.020439237899626
0.02,-1.4387805498478932
0.022,-1.4385095691283842
0.024,-1.1209796113902306
0.026000000000000002,-0.6068925150484102
0.028,0.017596072294040303
0.03,0.6747335669011079
0.032,1.1972784371381247
0.034,1.40053962497622
0.036000000000000004,1.4146712222553468
0.038,1.0386380351777946
0.04,0.526331613764155
0.042,-0.018962117417013438
0.044,-0.6625802242479469
0.046,-1.162645948631298
0.048,-1.3608897132715385
0.05,-1.2668663695584965
0.052000000000000005,-0.8831854453214552
0.054,-0.4904332012121813
0.056,0.09928669132514237
0.058,0.7167578891581973
0.06,1.0346058804987863
0.062,1.2548648844901797
0.064,1.249341467297738
0.066,0.933671827607912
0.068,0.43731134027492646
0.07,-0.07964175063463749
0.07200000000000001,-0.764808153478079
0.074,-0.9473000575212217
0.076,-1.2158381442771442
0.078,-1.1876810739219672
0.08,-0.8128892847366774
0.082,-0.360935449436816
0.084,0.07680154575948994
0.08600000000000001,0.5057758827842761
0.088,0.8983578653763212
0.09,1.0472564660136603
0.092,1.0651322067512632
0.094,0.7873956771771324
0.096,0.3794205326535821
0.098,-0.011982020277660085
0.1,-0.4858044106428657
0.10200000000000001,-0.8233992551469166
0.10400000000000001,-0.889831118013045
0.106,-0.8519447107082108
0.108,-0.6890635474377298
0.11,-0.39574389704013835
0.112,0.029348757479241074
0.114,0.24760664388255005
0.116,0.6758279645599538
0.11800000000000001,0.8037178978842705
0.12,0.6850513827582903
0.122,0.6180566864383364
0.124,0.3103070758676177
0.126,0.08787198075956804
0.128,-0.35350082047591913
0.13,-0.5388039976170177
0.132,-0.5988872491159766
0.134,-0.5987592600995094
0.136,-0.6708351200998199
0.138,-0.40156393596113343
0.14,-0.11897072143233295
0.14200000000000002,0.08612302736408428
0.14400000000000002,0.4157334282186514
0.146,0.42934186487928316
0.148,0.5712286648809423
0.15,0.4720514659251984
0.152,0.48178222751883165
0.154,0.23555793586047474
0.156,0.011519475639360111
0.158,-0.26072551435068586
0.16,-0.26281713798828227
0.162,-0.4233698008110894
0.164,-0.46354288129279925
0.166,-0.4057179517140555
0.168,-0.3340798433054084
0.17,-0.21663438132134236
0.17200000000000001,-0.026814208261894637
0.17400000000000002,0.17228881522622297
0.176,0.4502929391514692
0.178,0.4210288366831198
0.18,0.49907407795560743
0.182,0.46109483063922224
0.184,0.35423334486224783
0.186,0.1731647403927179
0.188,-0.15106430848818256
0.19,-0.40437404157422946
0.192,-0.5032470678510989
0.194,-0.547750457420373
0.196,-0.572188534907361
0.198,-0.49010954694045544
0.2,-0.30975040834710527
0.202,-0.006479735720547886
0.20400000000000001,0.2583859663867726
0.20600000000000002,0.568297876935785
0.20800000000000002,0.6589304092209659
0.21,0.7530623749471103
0.212,0.6485361288833917
0.214,0.4587150476849081
0.216,0.12579819291442754
0.218,-0.11283283382191439
0.22,-0.49086715700048067
0.222,-0.7215910096199507
0.224,-0.9839665201457137
0.226,-0.8154299411947633
0.228,-0.5845270924567766
0.23,-0.16336028984473658
0.232,0.1129751951654639
0.234,0.6746557391933603
0.23600000000000002,0.9515209037158316
0.23800000000000002,0.9476791048902389
0.24,0.881131378825752
0.242,0.6188179819931044
0.244,0.24870562069763558
0.246,-0.1972058111556186
0.248,-0.5726428193874049
0.25,-1.0098722714943806
0.252,-1.0962418548315807
0.254,-1.037822724604309
0.256,-0.6559242858177683
0.258,-0.24700606030012956
0.26,0.31393922187185197
0.262,0.6859469527960224
0.264,1.088269683109177
0.266,1.2029335454414998
0.268,1.2174150624395632
0.27,0.8409123537799725
0.272,0.2881728732436471
0.274,-0.29586287435186703
0.276,-0.7824312788277179
0.278,-1.222876311242059
0.28,-1.3828425814936556
0.28200000000000003,-1.1935389645919328
0.28400000000000003,-0.7276587704960539
0.28600000000000003,-0.3182727168530138
0.28800000000000003,0.2816389234747796
0.29,0.813125769455807
0.292,1.1991711774140952
0.294,1.43597793607432
0.296,1.3130139165166257
0.298,0.8731587396848375
0.3,0.3105214255800642
0.302,-0.3448706681293288
0.304,-0.9240523053770199
0.306,-1.4050456262017215
0.308,-1.4844540588898372
0.31,-1.294586654359795
0.312,-0.9140562291982162
0.314,-0.2937997972189473
0.316,0.3522907027581685
0.318,0.9641053945293593
0.32,1.4158758927624147
0.322,1.4698524883532849
0.324,1.2991729949093913
0.326,0.9000406937356298
0.328,0.26970712474683906
0.33,-0.34860156000938836
0.332,-1.1220772935522458
0.334,-1.3540980098904005
0.336,-1.51894658802693
0.338,-1.2848700387008778
0.34,-0.7867761200983859
0.342,-0.14578370452282882
0.34400000000000003,0.5192153050057606
0.34600000000000003,1.0459628167380444
0.34800000000000003,1.4786531587208684
0.35000000000000003,1.46137954678677
0.352,1.2491029417119164
0.354,0.8259123399819241
0.356,0.13360973727821424
0.358,-0.3833011504979533
0.36,-0.9892384502577423
0.362,-1.2671726502331375
0.364,-1.4344480651208251
0.366,-1.2221280867684605
0.368,-0.7263755632459599
0.37,-0.08822589290231628
0.372,0.47308753958864713
0.374,1.0406277487849458
0.376,1.3293035780133096
0.378,1.4500244797113522
0.38,1.1019837020224514
0.382,0.7310958585822471
0.384,0.06273420254054392
0.386,-0.5459141065194415
0.388,-1.0169133817907825
0.39,-1.3209398137000712
0.392,-1.2789348815726667
0.394,-1.0045316508123356
0.396,-0.613776708060536
0.398,-0.04323805105640273
0.4,0.5571369679263294
0.402,0.932623586027954
0.404,1.1810548532593832
0.406,1.1733879710560853
0.40800000000000003,0.88931008875646
0.41000000000000003,0.6061271039174954
0.41200000000000003,-0.021367297877493238
0.41400000000000003,-0.40138131391149634
0.41600000000000004,-0.8360050406996864
0.418,-1.0056354885980108
0.42,-1.0787899729031099
0.422,-0.921139328737681
0.424,-0.5029044313796738
0.426,-0.10129999834718449
0.428,0.3636857297741888
0.43,0.7332744964690487
0.432,0.9296312211592894
0.434,0.9454585312294487
0.436,0.7492166885172835
0.438,0.47370577477092035
0.44,-0.010275403427912014
0.442,-0.29974618468422254
0.444,-0.6687471989053971
0.446,-0.7418826101349454
0.448,-0.7662179205395787
0.45,-0.8036586628798293
0.452,-0.4506605008720971
0.454,-0.14378166375512766
0.456,0.1401199445485787
0.458,0.49759844628154976
0.46,0.6273673918418876
0.462,0.6156052636722723
0.464,0.6159363371463372
0.466,0.43967301055661184
0.468,0.20123459505666227
0.47000000000000003,-0.1378012769495854
0.47200000000000003,-0.2902360206368354
0.47400000000000003,-0.46139053780509
0.47600000000000003,-0.6390319743641077
0.47800000000000004,-0.5962941516668102
0.48,-0.4560600177724916
0.482,-0.2996443074615751
0.484,0.03290885845314756
0.486,0.1730641155944294
0.488,0.294748604525339
0.49,0.42733799502936753
0.492,0.5079184698694692
0.494,0.5881413886932363
0.496,0.35343040132604764
0.498,0.202363182216316
0.5,0.025702268907910737
0.502,-0.19799565806747402
0.504,-0.2483105737888624
0.506,-0.49992869563156167
0.508,-0.47358182652496505
0.51,-0.45872154296142875
0.512,-0.3142178876822306
0.514,-0.22147765770750816
0.516,0.14268450679469086
0.518,0.2652716657527778
0.52,0.4537513151843941
0.522,0.5166025601242116
0.524,0.5452558471122042
0.526,0.5263753638734329
0.528,0.3703450612884461
0.53,0.11390236155063228
0.532,-0.13546453166016006
0.534,-0.41136122086213495
0.536,-0.62784707808134
0.538,-0.6621589189843798
0.54,-0.6207717070542226
0.542,-0.47604455247618394
0.544,-0.1561520901256097
0.546,0.20174833737323128
0.548,0.4696349065870958
0.55,0.6882971189822217
0.552,0.8656498265537106
0.554,0.8929318815439224
0.556,0.5983162974506823
0.558,0.28726409881716203
0.56,-0.10346150352986817
0.562,-0.4220115935674036
0.5640000000000001,-0.8826988507772886
0.5660000000000001,-0.9366063764407551
0.5680000000000001,-0.8767455109585265
0.5700000000000001,-0.7718501156710298
0.5720000000000001,-0.2982847005991568
0.5740000000000001,0.10005364198529221
0.5760000000000001,0.49334814885454126
0.578,0.8901863118086616
0.58,0.9986768538142607
0.582,1.0336960093292653
0.584,0.9266342147904538
0.586,0.38932493331878937
0.588,0.0257728620917691
0.59,-0.5722188367335771
0.592,-0.91998905880819
0.594,-1.1849461933216126
0.596,-1.2833708123924146
0.598,-0.9477548292182474
0.6,-0.466035578318537
0.602,0.016906821217737206
0.604,0.554621915323625
0.606,1.0744039833024068
0.608,1.2537816495871121
0.61,1.1766391595589225
0.612,0.9471926517416934
0.614,0.5409192755320782
0.616,-0.11861468282163573
0.618,-0.6320491414231859
0.62,-1.0587551545049978
0.622,-1.3676146216577483
0.624,-1.3866279591326276
0.626,-1.0867209162183433
0.628,-0.5037716166417151
0.63,0.16900750188300528
0.632,0.7481787297699509
0.634,1.2303365187647919
0.636,1.4109515167177658
0.638,1.3909725543215548
0.64,1.0166333402316148
0.642,0.47506596825568626
0.644,-0.22579068134315305
0.646,-0.8645554303984413
0.648,-1.2802498719573827
0.65,-1.5309082251739645
0.652,-1.44610731057595
0.654,-1.0046551090358553
0.656,-0.4726018165639864
0.658,0.3456526567085102
0.66,0.8749791931144836
0.662,1.2599452488827805
0.664,1.5337327507930212
0.666,1.4147811515135598
0.668,0.9832689856699541
0.67,0.4884916863116295
0.672,-0.27623504443221436
0.674,-1.0122738383818046
0.676,-1.2671632909622481
0.678,-1.5210444618169519
0.68,-1.298918604428442
0.682,-1.0132638385751314
0.684,-0.45231442411383627
0.686,0.3474013933230483
0.6880000000000001,0.8211229739132521
0.6900000000000001,1.310330304314427
0.6920000000000001,1.534034505027214
0.6940000000000001,1.334462540743132
0.6960000000000001,0.926955801913506
0.6980000000000001,0.3557876688666385
0.7000000000000001,-0.25193994353430693
0.7020000000000001,-0.9130406116247025
0.704,-1.2399417149128908
0.706,-1.3808750034991366
0.708,-1.1492861240229557
0.71,-0.8885098876535461
0.712,-0.35517370547451566
0.714,0.3427503903000685
0.716,0.8309575096175912
0.718,1.2320584975246698
0.72,1.3429419638095588
0.722,1.2462212327993754
0.724,0.7738226484795554
0.726,0.2686255035554622
0.728,-0.43103572699314774
0.73,-0.8525360534030324
0.732,-1.0653507516622032
0.734,-1.2776974622658204
0.736,-1.1329555595801097
0.738,-0.8007260713844644
0.74,-0.21651998484386153
0.742,0.2930134615292919
0.744,0.6845772570316537
0.746,1.0789661338117413
0.748,1.147622276768926
0.75,1.0377016689716179
0.752,0.6429631467339196
0.754,0.31615480227688647
0.756,-0.2260474453867345
0.758,-0.6647210583809491
0.76,-0.9560005193371882
0.762,-1.0250240163869466
0.764,-0.8552321384550979
0.766,-0.6293791398478374
0.768,-0.17301932593282382
0.77,0.21903017846726672
0.772,0.6214213203517036
0.774,0.839119321379194
0.776,0.8788443649491895
0.778,0.7009608707880528
0.78,0.5807284239321207
0.782,0.27978836728174256
0.784,-0.10642165266258896
0.786,-0.40372549237091504
0.788,-0.677656140581347
0.79,-0.7653742566908525
0.792,-0.7457722283602621
0.794,-0.45934252777003526
0.796,-0.26263300749422164
0.798,-0.0034828837168197346
0.8,0.22730000078475068
0.802,0.4932267223137835
0.804,0.6821729974703228
0.806,0.6315247310055433
0.808,0.4668002775687444
0.81,0.3893481170223683
0.812,0.1600349655083162
0.8140000000000001,-0.09535846240637216
0.8160000000000001,-0.30356155018139547
0.8180000000000001,-0.41937443760032683
0.8200000000000001,-0.5017296012268577
0.8220000000000001,-0.45529785586668303
0.8240000000000001,-0.42079058887384746
0.8260000000000001,-0.13732092366168208
0.8280000000000001,-0.0016388435882475488
0.8300000000000001,0.2858826411807096
0.8320000000000001,0.24942877353048815
0.834,0.49788245806655795
0.836,0.5502941501909347
0.838,0.4438620998983833
0.84,0.3695306306153757
0.842,0.2122325867807028
0.844,-0.00126292822463403
0.846,-0.2636234601174608
0.848,-0.4185809718598626
0.85,-0.4735197685133853
0.852,-0.4896360633556466
0.854,-0.483954356779779
0.856,-0.33234979270049075
0.858,-0.10655901657422052
0.86,0.18725498655154654
0.862,0.3239600203263725
0.864,0.4964815593960588
0.866,0.6627950608305395
0.868,0.5790398101029041
0.87,0.46372379698404603
0.872,0.2561072437186967
0.874,-0.025885682000879123
0.876,-0.41211665081868315
0.878,-0.5749087386086588
0.88,-0.8556799710625638
0.882,-0.7518786823832205
0.884,-0.7202083136097899
0.886,-0.4360475274150299
0.888,0.014220034260273642
0.89,0.3362853569651872
0.892,0.6385441869938637
0.894,0.8588327936764957
0.896,0.9422856632720777
0.898,0.7744019366579863
0.9,0.47405911937465917
0.902,0.12030250055420269
0.904,-0.40554927995150547
0.906,-0.7736219617319329
0.908,-1.020973797392417
0.91,-0.9914477233914682
0.912,-0.8474813407957157
0.914,-0.49524234707091574
0.916,-0.1007274488947566
0.918,0.3881225661123524
0.92,0.8693502225141041
0.922,1.0845294977971325
0.924,1.2093892242054858
0.926,1.0345800359752195
0.928,0.5884841374764974
0.93,0.10898723491406061
0.932,-0.4386980547398421
0.934,-0.8179873077919435
0.936,-1.0758233519706546
0.9380000000000001,-1.274447258566435
0.9400000000000001,-1.0782256437113802
0.9420000000000001,-0.7807214318338669
0.9440000000000001,-0.1008880102976004
0.9460000000000001,0.47660053622884674
0.9480000000000001,0.9262976574372325
0.9500000000000001,1.3331723377843456
0.9520000000000001,1.2734600739815325
0.9540000000000001,1.1266418642606673
0.9560000000000001,0.6967783384934809
0.9580000000000001,0.033803162836907846
0.96,-0.48228159839994134
0.962,-0.9958500541699803
0.964,-1.43610432976602
0.966,-1.4828592352341856
0.968,-1.1430681935263578
0.97,-0.6957984659324067
0.972,-0.13092375684030266
0.974,0.5587288610994161
0.976,1.1015394064511692
0.978,1.4137260827234093
0.98,1.4914443129489743
0.982,1.2057991262256214
0.984,0.770443423643069
0.986,0.10578249532856991
0.988,-0.5843059532457126
0.99,-1.0974365786077986
0.992,-1.387591535136138
0.994,-1.4285141321399706
0.996,-1.2399699820830814
0.998,-0.6125983638006255
1.0,0.003613629349964801
1.002,0.7365097720532496
1.004,1.1833565774646566
1.006,1.4901134965132414
1.008,1.4702645139792907
1.01,1.2353518225761526
1.012,0.6270887577688729
1.014,-0.05054146579560404
1.016,-0.6665156433423798
1.018,-1.208564627110831
1.02,-1.4419679186614403
1.022,-1.421251630940664
1.024,-1.0933341122076672
1.026,-0.47732599590145425
1.028,0.050069071324232
1.03,0.6961222761365391
1.032,1.163206580337081
1.034,1.4460978823128254
1.036,1.3077045554458906
1.038,1.013991667383155
1.04,0.5231441554090884
1.042,-0.0689457674632837
1.044,-0.6921495609061163
1.046,-1.1623988254212816
1.048,-1.395089134730218
1.05,-1.2683049944269607
1.052,-0.9078299173883083
1.054,-0.46080841023828495
1.056,0.12087137654069041
1.058,0.6888358594067461
1.06,1.0317962318259053
1.062,1.2538671518162694
1.064,1.1918181978648605
1.066,0.9194163494299812
1.068,0.4311342205808329
1.07,-0.17396697097405728
1.072,-0.5671385853821289
1.074,-0.9137449761714413
1.076,-1.1810157619857307
1.078,-1.084308037325947
1.08,-0.8133534936134303
1.082,-0.3567295128886348
1.084,0.02505076364589083
1.086,0.640246660977922
1.088,0.8736590071400588
1.09,1.1131051385408297
1.092,0.9988858556775155
1.094,0.7305474960948848
1.096,0.3627071153968582
1.098,-0.02270503324765931
1.1,-0.5186920646039724
1.102,-0.7958631721673769
1.104,-0.9431430447587407
1.106,-0.9668440514126211
1.108,-0.613300835770694
1.11,-0.3276590265148164
1.112,0.016825311143113437
1.114,0.4304844931178753
1.116,0.5935002334722721
1.118,0.77547699413494
1.12,0.8532643817828797
1.122,0.6639723316278175
1.124,0.24723953868665313
1.1260000000000001,-0.11659313659833467
1.1280000000000001,-0.3036876499084312
1.1300000000000001,-0.4400151052828386
1.1320000000000001,-0.6579885379385767
1.1340000000000001,-0.6674665157599029
1.1360000000000001,-0.5325212789870268
1.1380000000000001,-0.42092205892226237
1.1400000000000001,-0.12472783128555612
1.1420000000000001,0.1561887455521127
1.1440000000000001,0.3595520776640063
1.1460000000000001,0.5087004721589465
1.1480000000000001,0.5233997618189699
1.1500000000000001,0.5501860991107279
1.1520000000000001,0.3901025767161664
1.154,0.30188784484133957
1.156,0.15863664077402062
1.158,-0.2118115609787435
1.16,-0.45563351888029674
1.162,-0.4822807252624448
1.164,-0.4823788178017395
1.166,-0.4101054483124241
1.168,-0.29759039653650093
1.17,-0.2238696191082551
1.172,-0.026463913960595505
1.174,0.2756638601297865
1.176,0.3271699369632029
1.178,0.5485594643036149
1.18,0.5175481571839735
1.182,0.5154772060271081
1.184,0.378310629282972
1.186,0.18322989502038567
1.188,-0.04758812317372954
1.19,-0.3673429180186619
1.192,-0.4881503007894259
1.194,-0.607729528118892
1.196,-0.5946210364397979
1.198,-0.43922966641343675
1.2,-0.3074480382026699
1.202,-0.05673994164160506
1.204,0.23414694686459173
1.206,0.5118966290219923
1.208,0.7362833037033498
1.21,0.705609596305397
1.212,0.7120380304440581
1.214,0.44606965148504285
1.216,0.10326072069972834
1.218,-0.306917114526588
1.22,-0.5535532356829963
1.222,-0.7618544017912506
1.224,-0.9702796176022759
1.226,-0.7388161313953591
1.228,-0.47170921091648255
1.23,-0.17307125499372022
1.232,0.25151556453648266
1.234,0.7366155550722713
1.236,0.9597662721636139
1.238,0.967894787855848
1.24,0.929226545949446
1.242,0.6510300291512962
1.244,0.2389969858787313
1.246,-0.347467755278131
1.248,-0.6371868801271203
1.25,-1.0318368058531533
1.252,-1.1264344095528749
1.254,-1.0524005822944076
1.256,-0.7003658311622732
1.258,-0.29890438787459167
1.26,0.2057402962885953
1.262,0.766451836288139
1.264,1.1681260029274727
1.266,1.2276316323642695
1.268,1.2106650936304821
1.27,0.8211395160894583
1.272,0.2767936202685187
1.274,-0.19698158998044002
1.276,-0.8475958395157237
1.278,-1.1370991247773206
1.28,-1.3612224360224578
1.282,-1.195091756923408
1.284,-0.9125227873652112
1.286,-0.34784567021250984
1.288,0.36268482754939046
1.29,0.8810894537528251
1.292,1.2678363761153795
1.294,1.3877383622443857
1.296,1.29279779856409
1.298,0.8028365397608295
1.3,0.2378958639299404
1.302,-0.3585560152711589
1.304,-0.9726990992383082
1.306,-1.3637673619878417
1.308,-1.465123308139792
1.31,-1.3070366863366083
1.312,-0.8860232252018934
1.314,-0.18671452907253422
1.316,0.44380050178827624
1.318,1.0422669541657208
1.32,1.371812378977896
1.322,1.464947291494912
1.324,1.234171570046701
1.326,0.8419479055263449
1.328,0.1331708381986458
1.33,-0.4625490038114458
1.332,-0.9793410928741162
1.334,-1.3158644449025367
1.336,-1.4465520378540722
1.338,-1.334684651755869
1.34,-0.8040311632032254
1.342,-0.2394045635603104
1.344,0.5083964599947393
1.346,1.0326394230248817
1.348,1.4410800302928117
1.35,1.6041730367592346
1.352,1.302278252532072
1.354,0.9025672778061539
1.356,0.17005047332629072
1.358,-0.5078323494670799
1.36,-0.9735135590649555
1.362,-1.289733588600811
1.364,-1.4608693354908835
1.366,-1.1991420609755743
1.368,-0.8064544397938305
1.37,-0.13495701191350262
1.372,0.5468755353574608
1.374,1.0173234195661622
1.3760000000000001,1.3016827840802554
1.3780000000000001,1.2988783965721464
1.3800000000000001,1.1535315176333816
1.3820000000000001,0.7186648031790617
1.3840000000000001,0.12475241345631287
1.3860000000000001,-0.4851166119166157
1.3880000000000001,-1.0451016778889455
1.3900000000000001,-1.1733400885688976
1.3920000000000001,-1.2890792178056367
1.3940000000000001,-1.06333451311678
1.3960000000000001,-0.5853460244855107
1.3980000000000001,-0.18261361842587023
1.4000000000000001,0.4723048962809748
1.4020000000000001,0.9122827835200287
1.4040000000000001,1.1899108918084673
1.4060000000000001,1.254499036842836
1.408,0.993332209455266
1.41,0.47653523728276487
1.412,0.04950188685347927
1.414,-0.42373855082602463
1.416,-0.827930661954373
1.418,-1.1260377062274225
1.42,-1.1585893868725083
1.422,-0.8525287768789798
1.424,-0.5036231900650701
1.426,-0.07435324495094883
1.428,0.28646247182720086
1.43,0.819883475482047
1.432,0.7913470194879209
1.434,0.9366937808254617
1.436,0.8953965094428613
1.438,0.47529117054503317
1.44,0.108245137686927
1.442,-0.35083690189759964
1.444,-0.5409123983023055
1.446,-0.8625269401893678
1.448,-0.8169932992434545
1.45,-0.699362091536213
1.452,-0.5104425681638377
1.454,-0.0931144975664002
1.456,0.12165782549111244
1.458,0.43684156250239653
1.46,0.6490167589288135
